freq,psd_x,psd_y,psd_z,psd_xyz
0.0,9.047e+02,2.651e+01,1.787e+01,9.491e+02
1.7,5.971e+02,4.520e+01,6.852e+01,7.109e+02
3.4,1.938e+02,4.221e+01,7.958e+01,3.156e+02
5.0,9.639e+02,4.374e+01,7.722e+01,1.085e+03
6.7,2.328e+03,4.684e+01,8.298e+01,2.458e+03
8.4,3.625e+03,5.140e+01,7.987e+01,3.756e+03
10.1,5.174e+03,5.172e+01,7.548e+01,5.301e+03
11.7,6.996e+03,4.930e+01,8.846e+01,7.134e+03
13.4,9.228e+03,4.861e+01,1.053e+02,9.381e+03
15.1,1.191e+04,4.725e+01,1.285e+02,1.209e+04
16.8,1.532e+04,4.456e+01,2.280e+02,1.559e+04
18.4,1.921e+04,4.809e+01,2.452e+02,1.950e+04
20.1,2.467e+04,4.909e+01,1.246e+02,2.484e+04
21.8,3.180e+04,4.782e+01,1.249e+02,3.197e+04
23.5,3.249e+04,4.597e+01,2.093e+02,3.275e+04
25.1,2.951e+04,4.884e+01,1.881e+02,2.975e+04
26.8,3.510e+04,4.915e+01,1.474e+02,3.529e+04
28.5,4.375e+04,4.877e+01,1.398e+02,4.394e+04
30.2,5.185e+04,5.424e+01,1.425e+02,5.205e+04
31.8,6.018e+04,5.483e+01,1.430e+02,6.038e+04
33.5,6.985e+04,5.680e+01,1.665e+02,7.008e+04
35.2,8.117e+04,6.254e+01,2.304e+02,8.147e+04
36.9,9.442e+04,6.810e+01,2.897e+02,9.477e+04
38.5,1.097e+05,7.905e+01,3.781e+02,1.102e+05
40.2,1.277e+05,8.584e+01,5.204e+02,1.283e+05
41.9,1.534e+05,9.124e+01,7.085e+02,1.542e+05
43.6,1.772e+05,9.290e+01,9.216e+02,1.782e+05
45.2,2.047e+05,9.653e+01,1.304e+03,2.061e+05
46.9,2.416e+05,1.323e+02,2.254e+03,2.440e+05
48.6,2.351e+05,2.121e+02,3.428e+03,2.388e+05
50.3,1.892e+05,2.786e+02,3.467e+03,1.929e+05
51.9,1.886e+05,3.674e+02,3.352e+03,1.923e+05
53.6,2.266e+05,5.361e+02,3.700e+03,2.309e+05
55.3,2.838e+05,8.282e+02,4.647e+03,2.893e+05
57.0,3.420e+05,1.172e+03,6.136e+03,3.493e+05
58.6,4.189e+05,1.815e+03,9.183e+03,4.299e+05
60.3,5.304e+05,2.460e+03,1.112e+04,5.440e+05
62.0,6.588e+05,2.519e+03,8.442e+03,6.697e+05
63.7,7.954e+05,3.204e+03,6.456e+03,8.051e+05
65.3,9.424e+05,4.266e+03,8.498e+03,9.552e+05
67.0,1.060e+06,5.126e+03,1.305e+04,1.079e+06
68.7,1.166e+06,8.271e+03,1.620e+04,1.191e+06
70.4,1.425e+06,1.389e+04,1.687e+04,1.456e+06
72.0,1.753e+06,2.267e+04,1.643e+04,1.792e+06
73.7,2.178e+06,3.954e+04,1.255e+04,2.230e+06
75.4,2.553e+06,6.559e+04,7.778e+03,2.626e+06
77.1,2.719e+06,1.033e+05,4.660e+03,2.827e+06
78.7,2.674e+06,1.292e+05,3.637e+03,2.807e+06
80.4,2.495e+06,1.296e+05,4.417e+03,2.629e+06
82.1,2.134e+06,1.213e+05,4.860e+03,2.260e+06
83.8,1.800e+06,1.132e+05,4.948e+03,1.918e+06
85.4,1.557e+06,9.254e+04,5.534e+03,1.655e+06
87.1,1.345e+06,6.661e+04,5.468e+03,1.417e+06
88.8,1.150e+06,4.629e+04,4.805e+03,1.201e+06
90.5,1.014e+06,2.892e+04,4.221e+03,1.047e+06
92.1,9.010e+05,1.826e+04,3.305e+03,9.225e+05
93.8,7.987e+05,1.443e+04,2.560e+03,8.157e+05
95.5,7.268e+05,1.135e+04,2.018e+03,7.401e+05
97.2,6.947e+05,7.327e+03,1.582e+03,7.036e+05
98.8,6.621e+05,4.227e+03,1.221e+03,6.676e+05
100.5,6.012e+05,3.535e+03,1.047e+03,6.058e+05
102.2,5.467e+05,4.294e+03,8.450e+02,5.518e+05
103.9,5.090e+05,4.737e+03,6.985e+02,5.144e+05
105.5,4.671e+05,4.896e+03,6.539e+02,4.726e+05
107.2,4.544e+05,5.860e+03,7.719e+02,4.611e+05
108.9,4.586e+05,8.534e+03,1.070e+03,4.682e+05
110.6,4.754e+05,1.734e+04,1.416e+03,4.942e+05
112.2,4.872e+05,2.815e+04,1.722e+03,5.171e+05
113.9,4.861e+05,3.097e+04,2.025e+03,5.191e+05
115.6,4.945e+05,2.939e+04,2.290e+03,5.262e+05
117.3,5.348e+05,2.699e+04,2.695e+03,5.645e+05
119.0,6.156e+05,2.785e+04,3.250e+03,6.467e+05
120.6,7.662e+05,2.541e+04,3.736e+03,7.953e+05
122.3,1.051e+06,2.182e+04,4.831e+03,1.078e+06
124.0,1.553e+06,2.624e+04,6.658e+03,1.586e+06
125.7,2.299e+06,3.508e+04,8.275e+03,2.342e+06
127.3,3.307e+06,5.490e+04,9.435e+03,3.372e+06
129.0,4.086e+06,7.348e+04,1.126e+04,4.170e+06
130.7,3.504e+06,5.964e+04,1.064e+04,3.574e+06
132.4,1.912e+06,2.429e+04,6.359e+03,1.942e+06
134.0,3.474e+05,3.772e+03,1.264e+03,3.524e+05
135.7,2.004e+04,8.587e+02,2.056e+02,2.110e+04
137.4,1.416e+04,6.113e+02,2.092e+02,1.498e+04
139.1,1.408e+04,6.601e+02,2.161e+02,1.495e+04
140.7,1.406e+04,7.660e+02,2.204e+02,1.505e+04
142.4,1.416e+04,8.308e+02,2.356e+02,1.522e+04
144.1,1.370e+04,7.544e+02,2.240e+02,1.467e+04
145.8,1.365e+04,7.161e+02,2.069e+02,1.458e+04
147.4,1.407e+04,6.717e+02,2.179e+02,1.496e+04
149.1,1.629e+04,5.813e+02,2.313e+02,1.711e+04
150.8,1.770e+04,4.614e+02,2.494e+02,1.841e+04
152.5,1.693e+04,3.754e+02,3.069e+02,1.761e+04
154.1,1.613e+04,3.423e+02,4.349e+02,1.691e+04
155.8,1.336e+04,2.602e+02,4.491e+02,1.407e+04
157.5,1.116e+04,3.058e+02,3.303e+02,1.180e+04
159.2,1.085e+04,3.557e+02,2.994e+02,1.151e+04
160.8,9.867e+03,3.833e+02,2.945e+02,1.054e+04
162.5,9.201e+03,4.312e+02,2.584e+02,9.891e+03
164.2,8.998e+03,4.772e+02,2.334e+02,9.708e+03
165.9,9.584e+03,5.517e+02,2.144e+02,1.035e+04
167.5,1.178e+04,5.526e+02,2.341e+02,1.256e+04
169.2,1.375e+04,6.030e+02,2.334e+02,1.459e+04
170.9,1.709e+04,5.994e+02,2.196e+02,1.791e+04
172.6,2.390e+04,6.274e+02,2.243e+02,2.475e+04
174.2,2.497e+04,6.319e+02,2.244e+02,2.583e+04
175.9,2.320e+04,6.392e+02,2.299e+02,2.407e+04
177.6,2.109e+04,6.801e+02,2.345e+02,2.201e+04
179.3,1.894e+04,7.346e+02,2.408e+02,1.992e+04
180.9,1.740e+04,7.391e+02,2.480e+02,1.839e+04
182.6,1.577e+04,7.527e+02,2.273e+02,1.675e+04
184.3,1.418e+04,7.640e+02,2.069e+02,1.515e+04
186.0,1.271e+04,7.637e+02,2.139e+02,1.369e+04
187.6,1.216e+04,8.208e+02,2.148e+02,1.320e+04
189.3,1.183e+04,8.850e+02,2.137e+02,1.293e+04
191.0,1.168e+04,9.687e+02,2.180e+02,1.287e+04
192.7,1.262e+04,1.263e+03,2.293e+02,1.412e+04
194.3,1.504e+04,1.463e+03,2.459e+02,1.675e+04
196.0,1.670e+04,1.605e+03,2.525e+02,1.855e+04
197.7,1.783e+04,1.674e+03,2.384e+02,1.974e+04
199.4,2.019e+04,1.742e+03,2.416e+02,2.217e+04
